"File_140410_103256_160608 - RawData"
"Wavelength nm." "Abs."
200.00 0.0772
201.00 0.0692
202.00 0.0611
203.00 0.0531
204.00 0.0455
205.00 0.0405
206.00 0.0353
207.00 0.0310
208.00 0.0272
209.00 0.0246
210.00 0.0221
211.00 0.0203
212.00 0.0187
213.00 0.0172
214.00 0.0162
215.00 0.0152
216.00 0.0147
217.00 0.0138
218.00 0.0128
219.00 0.0122
220.00 0.0111
221.00 0.0109
222.00 0.0103
223.00 0.0099
224.00 0.0093
225.00 0.0088
226.00 0.0083
227.00 0.0078
228.00 0.0075
229.00 0.0071
230.00 0.0068
231.00 0.0064
232.00 0.0061
233.00 0.0059
234.00 0.0056
235.00 0.0055
236.00 0.0053
237.00 0.0049
238.00 0.0048
239.00 0.0045
240.00 0.0043
241.00 0.0044
242.00 0.0043
243.00 0.0042
244.00 0.0041
245.00 0.0041
246.00 0.0041
247.00 0.0041
248.00 0.0040
249.00 0.0040
250.00 0.0039
251.00 0.0039
252.00 0.0038
253.00 0.0038
254.00 0.0039
255.00 0.0037
256.00 0.0038
257.00 0.0038
258.00 0.0039
259.00 0.0036
260.00 0.0035
261.00 0.0034
262.00 0.0034
263.00 0.0033
264.00 0.0033
265.00 0.0031
266.00 0.0031
267.00 0.0030
268.00 0.0029
269.00 0.0029
270.00 0.0028
271.00 0.0028
272.00 0.0027
273.00 0.0026
274.00 0.0026
275.00 0.0026
276.00 0.0024
277.00 0.0025
278.00 0.0024
279.00 0.0023
280.00 0.0025
281.00 0.0024
282.00 0.0021
283.00 0.0021
284.00 0.0022
285.00 0.0022
286.00 0.0021
287.00 0.0020
288.00 0.0021
289.00 0.0022
290.00 0.0020
291.00 0.0018
292.00 0.0019
293.00 0.0018
294.00 0.0016
295.00 0.0016
296.00 0.0017
297.00 0.0016
298.00 0.0017
299.00 0.0015
300.00 0.0016
301.00 0.0018
302.00 0.0016
303.00 0.0015
304.00 0.0016
305.00 0.0014
306.00 0.0015
307.00 0.0014
308.00 0.0011
309.00 0.0011
310.00 0.0015
311.00 0.0011
312.00 0.0013
313.00 0.0015
314.00 0.0015
315.00 0.0013
316.00 0.0013
317.00 0.0013
318.00 0.0013
319.00 0.0011
320.00 0.0013
321.00 0.0015
322.00 0.0017
323.00 0.0017
324.00 0.0015
325.00 0.0013
326.00 0.0015
327.00 0.0016
328.00 0.0011
329.00 0.0014
330.00 0.0012
331.00 0.0012
332.00 0.0013
333.00 0.0014
334.00 0.0014
335.00 0.0011
336.00 0.0009
337.00 0.0012
338.00 0.0011
339.00 0.0011
340.00 0.0015
341.00 0.0015
342.00 0.0013
343.00 0.0015
344.00 0.0014
345.00 0.0016
346.00 0.0014
347.00 0.0014
348.00 0.0014
349.00 0.0016
350.00 0.0013
351.00 0.0011
352.00 0.0013
353.00 0.0013
354.00 0.0015
355.00 0.0014
356.00 0.0013
357.00 0.0014
358.00 0.0013
359.00 0.0014
360.00 0.0013
361.00 0.0013
362.00 0.0013
363.00 0.0016
364.00 0.0013
365.00 0.0013
366.00 0.0013
367.00 0.0011
368.00 0.0011
369.00 0.0012
370.00 0.0014
371.00 0.0013
372.00 0.0012
373.00 0.0012
374.00 0.0012
375.00 0.0012
376.00 0.0011
377.00 0.0013
378.00 0.0013
379.00 0.0012
380.00 0.0012
381.00 0.0012
382.00 0.0012
383.00 0.0012
384.00 0.0012
385.00 0.0011
386.00 0.0011
387.00 0.0012
388.00 0.0011
389.00 0.0011
390.00 0.0011
391.00 0.0011
392.00 0.0012
393.00 0.0012
394.00 0.0011
395.00 0.0013
396.00 0.0011
397.00 0.0011
398.00 0.0012
399.00 0.0010
400.00 0.0011
401.00 0.0011
402.00 0.0011
403.00 0.0011
404.00 0.0011
405.00 0.0010
406.00 0.0011
407.00 0.0011
408.00 0.0011
409.00 0.0011
410.00 0.0011
411.00 0.0011
412.00 0.0011
413.00 0.0010
414.00 0.0010
415.00 0.0011
416.00 0.0010
417.00 0.0010
418.00 0.0010
419.00 0.0011
420.00 0.0010
421.00 0.0010
422.00 0.0010
423.00 0.0010
424.00 0.0010
425.00 0.0010
426.00 0.0011
427.00 0.0010
428.00 0.0011
429.00 0.0010
430.00 0.0011
431.00 0.0011
432.00 0.0010
433.00 0.0010
434.00 0.0011
435.00 0.0010
436.00 0.0010
437.00 0.0011
438.00 0.0010
439.00 0.0011
440.00 0.0010
441.00 0.0010
442.00 0.0011
443.00 0.0011
444.00 0.0010
445.00 0.0010
446.00 0.0010
447.00 0.0010
448.00 0.0011
449.00 0.0011
450.00 0.0010
451.00 0.0010
452.00 0.0010
453.00 0.0010
454.00 0.0010
455.00 0.0011
456.00 0.0011
457.00 0.0010
458.00 0.0010
459.00 0.0010
460.00 0.0010
461.00 0.0011
462.00 0.0011
463.00 0.0010
464.00 0.0010
465.00 0.0011
466.00 0.0010
467.00 0.0010
468.00 0.0010
469.00 0.0011
470.00 0.0010
471.00 0.0010
472.00 0.0010
473.00 0.0010
474.00 0.0010
475.00 0.0010
476.00 0.0009
477.00 0.0010
478.00 0.0010
479.00 0.0010
480.00 0.0010
481.00 0.0010
482.00 0.0010
483.00 0.0010
484.00 0.0010
485.00 0.0010
486.00 0.0010
487.00 0.0009
488.00 0.0009
489.00 0.0009
490.00 0.0010
491.00 0.0009
492.00 0.0009
493.00 0.0010
494.00 0.0009
495.00 0.0009
496.00 0.0010
497.00 0.0009
498.00 0.0009
499.00 0.0009
500.00 0.0010
501.00 0.0009
502.00 0.0010
503.00 0.0009
504.00 0.0010
505.00 0.0010
506.00 0.0010
507.00 0.0010
508.00 0.0010
509.00 0.0009
510.00 0.0010
511.00 0.0010
512.00 0.0009
513.00 0.0009
514.00 0.0010
515.00 0.0009
516.00 0.0009
517.00 0.0009
518.00 0.0010
519.00 0.0011
520.00 0.0010
521.00 0.0009
522.00 0.0009
523.00 0.0010
524.00 0.0010
525.00 0.0010
526.00 0.0011
527.00 0.0009
528.00 0.0009
529.00 0.0009
530.00 0.0009
531.00 0.0009
532.00 0.0010
533.00 0.0009
534.00 0.0010
535.00 0.0010
536.00 0.0009
537.00 0.0010
538.00 0.0010
539.00 0.0010
540.00 0.0009
541.00 0.0009
542.00 0.0010
543.00 0.0010
544.00 0.0009
545.00 0.0009
546.00 0.0009
547.00 0.0010
548.00 0.0009
549.00 0.0009
550.00 0.0009
551.00 0.0009
552.00 0.0009
553.00 0.0009
554.00 0.0009
555.00 0.0009
556.00 0.0010
557.00 0.0009
558.00 0.0009
559.00 0.0009
560.00 0.0009
561.00 0.0009
562.00 0.0009
563.00 0.0008
564.00 0.0008
565.00 0.0009
566.00 0.0009
567.00 0.0009
568.00 0.0010
569.00 0.0010
570.00 0.0009
571.00 0.0009
572.00 0.0009
573.00 0.0009
574.00 0.0008
575.00 0.0008
576.00 0.0009
577.00 0.0009
578.00 0.0009
579.00 0.0009
580.00 0.0009
581.00 0.0009
582.00 0.0008
583.00 0.0008
584.00 0.0009
585.00 0.0008
586.00 0.0008
587.00 0.0008
588.00 0.0008
589.00 0.0008
590.00 0.0008
591.00 0.0008
592.00 0.0008
593.00 0.0009
594.00 0.0008
595.00 0.0009
596.00 0.0009
597.00 0.0008
598.00 0.0008
599.00 0.0008
600.00 0.0008
601.00 0.0008
602.00 0.0007
603.00 0.0008
604.00 0.0009
605.00 0.0007
606.00 0.0008
607.00 0.0008
608.00 0.0008
609.00 0.0007
610.00 0.0008
611.00 0.0008
612.00 0.0008
613.00 0.0009
614.00 0.0008
615.00 0.0007
616.00 0.0008
617.00 0.0007
618.00 0.0008
619.00 0.0008
620.00 0.0007
621.00 0.0007
622.00 0.0008
623.00 0.0008
624.00 0.0008
625.00 0.0008
626.00 0.0008
627.00 0.0008
628.00 0.0007
629.00 0.0007
630.00 0.0007
631.00 0.0007
632.00 0.0008
633.00 0.0007
634.00 0.0008
635.00 0.0008
636.00 0.0007
637.00 0.0007
638.00 0.0007
639.00 0.0008
640.00 0.0007
641.00 0.0006
642.00 0.0007
643.00 0.0007
644.00 0.0007
645.00 0.0007
646.00 0.0006
647.00 0.0007
648.00 0.0006
649.00 0.0006
650.00 0.0007
651.00 0.0007
652.00 0.0007
653.00 0.0007
654.00 0.0007
655.00 0.0006
656.00 0.0007
657.00 0.0007
658.00 0.0007
659.00 0.0008
660.00 0.0008
661.00 0.0008
662.00 0.0007
663.00 0.0008
664.00 0.0007
665.00 0.0007
666.00 0.0006
667.00 0.0006
668.00 0.0007
669.00 0.0008
670.00 0.0008
671.00 0.0007
672.00 0.0006
673.00 0.0007
674.00 0.0007
675.00 0.0006
676.00 0.0006
677.00 0.0007
678.00 0.0008
679.00 0.0006
680.00 0.0006
681.00 0.0007
682.00 0.0007
683.00 0.0008
684.00 0.0006
685.00 0.0007
686.00 0.0007
687.00 0.0007
688.00 0.0007
689.00 0.0006
690.00 0.0006
691.00 0.0007
692.00 0.0008
693.00 0.0007
694.00 0.0008
695.00 0.0007
696.00 0.0007
697.00 0.0006
698.00 0.0007
699.00 0.0008
700.00 0.0007
701.00 0.0007
702.00 0.0007
703.00 0.0007
704.00 0.0007
705.00 0.0008
706.00 0.0008
707.00 0.0008
708.00 0.0007
709.00 0.0007
710.00 0.0008
711.00 0.0007
712.00 0.0008
713.00 0.0008
714.00 0.0008
715.00 0.0009
716.00 0.0010
717.00 0.0009
718.00 0.0007
719.00 0.0007
720.00 0.0008
721.00 0.0009
722.00 0.0009
723.00 0.0009
724.00 0.0009
725.00 0.0010
726.00 0.0009
727.00 0.0010
728.00 0.0009
729.00 0.0009
730.00 0.0010
731.00 0.0011
732.00 0.0010
733.00 0.0010
734.00 0.0011
735.00 0.0011
736.00 0.0011
737.00 0.0011
738.00 0.0011
739.00 0.0011
740.00 0.0011
741.00 0.0011
742.00 0.0012
743.00 0.0012
744.00 0.0011
745.00 0.0010
746.00 0.0010
747.00 0.0010
748.00 0.0011
749.00 0.0010
750.00 0.0010
751.00 0.0010
752.00 0.0009
753.00 0.0009
754.00 0.0008
755.00 0.0009
756.00 0.0010
757.00 0.0009
758.00 0.0009
759.00 0.0009
760.00 0.0008
761.00 0.0008
762.00 0.0008
763.00 0.0009
764.00 0.0008
765.00 0.0007
766.00 0.0007
767.00 0.0007
768.00 0.0007
769.00 0.0007
770.00 0.0007
771.00 0.0007
772.00 0.0006
773.00 0.0006
774.00 0.0006
775.00 0.0007
776.00 0.0006
777.00 0.0007
778.00 0.0005
779.00 0.0005
780.00 0.0006
781.00 0.0005
782.00 0.0006
783.00 0.0006
784.00 0.0006
785.00 0.0005
786.00 0.0007
787.00 0.0006
788.00 0.0006
789.00 0.0005
790.00 0.0005
791.00 0.0005
792.00 0.0005
793.00 0.0005
794.00 0.0005
795.00 0.0005
796.00 0.0004
797.00 0.0005
798.00 0.0005
799.00 0.0005
800.00 0.0005
801.00 0.0005
802.00 0.0005
803.00 0.0005
804.00 0.0006
805.00 0.0006
806.00 0.0006
807.00 0.0004
808.00 0.0005
809.00 0.0006
810.00 0.0006
811.00 0.0006
812.00 0.0005
813.00 0.0005
814.00 0.0005
815.00 0.0005
816.00 0.0005
817.00 0.0005
818.00 0.0005
819.00 0.0006
820.00 0.0005
821.00 0.0005
822.00 0.0006
823.00 0.0006
824.00 0.0006
825.00 0.0007
826.00 0.0007
827.00 0.0008
828.00 0.0008
829.00 0.0008
830.00 0.0008
831.00 0.0009
832.00 0.0009
833.00 0.0010
834.00 0.0009
835.00 0.0009
836.00 0.0008
837.00 0.0009
838.00 0.0009
839.00 0.0009
840.00 0.0010
841.00 0.0009
842.00 0.0008
843.00 0.0008
844.00 0.0008
845.00 0.0008
846.00 0.0007
847.00 0.0008
848.00 0.0008
849.00 0.0007
850.00 0.0007
851.00 0.0007
852.00 0.0007
853.00 0.0007
854.00 0.0007
855.00 0.0007
856.00 0.0006
857.00 0.0007
858.00 0.0006
859.00 0.0005
860.00 0.0006
861.00 0.0006
862.00 0.0006
863.00 0.0005
864.00 0.0005
865.00 0.0005
866.00 0.0005
867.00 0.0004
868.00 0.0005
869.00 0.0004
870.00 0.0004
871.00 0.0004
872.00 0.0005
873.00 0.0005
874.00 0.0004
875.00 0.0004
876.00 0.0004
877.00 0.0004
878.00 0.0004
879.00 0.0004
880.00 0.0003
881.00 0.0003
882.00 0.0004
883.00 0.0004
884.00 0.0003
885.00 0.0003
886.00 0.0003
887.00 0.0004
888.00 0.0004
889.00 0.0004
890.00 0.0002
891.00 0.0003
892.00 0.0004
893.00 0.0003
894.00 0.0003
895.00 0.0003
896.00 0.0002
897.00 0.0003
898.00 0.0003
899.00 0.0004
900.00 0.0004
901.00 0.0004
902.00 0.0004
903.00 0.0005
904.00 0.0004
905.00 0.0005
906.00 0.0005
907.00 0.0005
908.00 0.0004
909.00 0.0004
910.00 0.0004
911.00 0.0005
912.00 0.0005
913.00 0.0005
914.00 0.0006
915.00 0.0006
916.00 0.0007
917.00 0.0007
918.00 0.0008
919.00 0.0009
920.00 0.0010
921.00 0.0010
922.00 0.0010
923.00 0.0012
924.00 0.0012
925.00 0.0013
926.00 0.0014
927.00 0.0015
928.00 0.0016
929.00 0.0018
930.00 0.0018
931.00 0.0020
932.00 0.0021
933.00 0.0023
934.00 0.0024
935.00 0.0025
936.00 0.0026
937.00 0.0028
938.00 0.0030
939.00 0.0031
940.00 0.0031
941.00 0.0033
942.00 0.0034
943.00 0.0038
944.00 0.0040
945.00 0.0041
946.00 0.0042
947.00 0.0044
948.00 0.0046
949.00 0.0050
950.00 0.0051
951.00 0.0055
952.00 0.0058
953.00 0.0060
954.00 0.0065
955.00 0.0070
956.00 0.0073
957.00 0.0076
958.00 0.0081
959.00 0.0082
960.00 0.0085
961.00 0.0086
962.00 0.0086
963.00 0.0089
964.00 0.0085
965.00 0.0083
966.00 0.0085
967.00 0.0082
968.00 0.0083
969.00 0.0081
970.00 0.0080
971.00 0.0076
972.00 0.0074
973.00 0.0074
974.00 0.0071
975.00 0.0071
976.00 0.0068
977.00 0.0066
978.00 0.0063
979.00 0.0060
980.00 0.0061
981.00 0.0060
982.00 0.0056
983.00 0.0051
984.00 0.0049
985.00 0.0047
986.00 0.0046
987.00 0.0043
988.00 0.0038
989.00 0.0036
990.00 0.0032
991.00 0.0033
992.00 0.0028
993.00 0.0024
994.00 0.0024
995.00 0.0022
996.00 0.0018
997.00 0.0017
998.00 0.0014
999.00 0.0011
1000.00 0.0010
1001.00 0.0009
1002.00 0.0006
1003.00 0.0004
1004.00 0.0003
1005.00 0.0001
1006.00 0.0000
1007.00 -0.0002
1008.00 -0.0002
1009.00 -0.0004
1010.00 -0.0006
1011.00 -0.0007
1012.00 -0.0007
1013.00 -0.0009
1014.00 -0.0010
1015.00 -0.0012
1016.00 -0.0012
1017.00 -0.0012
1018.00 -0.0014
1019.00 -0.0014
1020.00 -0.0014
1021.00 -0.0014
1022.00 -0.0015
1023.00 -0.0015
1024.00 -0.0016
1025.00 -0.0016
1026.00 -0.0016
1027.00 -0.0016
1028.00 -0.0017
1029.00 -0.0016
1030.00 -0.0016
1031.00 -0.0015
1032.00 -0.0016
1033.00 -0.0017
1034.00 -0.0017
1035.00 -0.0017
1036.00 -0.0016
1037.00 -0.0016
1038.00 -0.0015
1039.00 -0.0015
1040.00 -0.0015
1041.00 -0.0014
1042.00 -0.0015
1043.00 -0.0015
1044.00 -0.0015
1045.00 -0.0014
1046.00 -0.0014
1047.00 -0.0013
1048.00 -0.0014
1049.00 -0.0012
1050.00 -0.0011
1051.00 -0.0011
1052.00 -0.0011
1053.00 -0.0011
1054.00 -0.0011
1055.00 -0.0011
1056.00 -0.0010
1057.00 -0.0009
1058.00 -0.0009
1059.00 -0.0009
1060.00 -0.0008
1061.00 -0.0009
1062.00 -0.0009
1063.00 -0.0008
1064.00 -0.0007
1065.00 -0.0007
1066.00 -0.0006
1067.00 -0.0006
1068.00 -0.0006
1069.00 -0.0005
1070.00 -0.0004
1071.00 -0.0005
1072.00 -0.0004
1073.00 -0.0003
1074.00 -0.0004
1075.00 -0.0005
1076.00 -0.0003
1077.00 -0.0002
1078.00 -0.0002
1079.00 -0.0000
1080.00 -0.0000
1081.00 0.0000
1082.00 0.0000
1083.00 0.0000
1084.00 -0.0001
1085.00 -0.0002
1086.00 0.0000
1087.00 0.0000
1088.00 0.0001
1089.00 0.0001
1090.00 0.0003
1091.00 0.0002
1092.00 0.0002
1093.00 0.0004
1094.00 0.0004
1095.00 0.0004
1096.00 0.0003
1097.00 0.0005
1098.00 0.0004
1099.00 0.0004
1100.00 0.0005
