"File_140410_103256_165705 - RawData"
"Wavelength nm." "Abs."
200.00 0.0009
201.00 0.0001
202.00 0.0009
203.00 -0.0001
204.00 -0.0004
205.00 -0.0002
206.00 0.0004
207.00 -0.0006
208.00 0.0001
209.00 0.0000
210.00 0.0005
211.00 -0.0001
212.00 -0.0003
213.00 -0.0001
214.00 0.0003
215.00 -0.0001
216.00 -0.0001
217.00 -0.0001
218.00 0.0003
219.00 -0.0002
220.00 0.0002
221.00 -0.0001
222.00 0.0000
223.00 -0.0002
224.00 -0.0000
225.00 0.0000
226.00 0.0001
227.00 -0.0003
228.00 -0.0005
229.00 -0.0002
230.00 -0.0001
231.00 0.0001
232.00 0.0000
233.00 -0.0001
234.00 -0.0002
235.00 -0.0000
236.00 -0.0001
237.00 -0.0002
238.00 -0.0001
239.00 0.0002
240.00 -0.0001
241.00 -0.0001
242.00 0.0001
243.00 -0.0001
244.00 -0.0002
245.00 0.0001
246.00 -0.0000
247.00 -0.0001
248.00 0.0000
249.00 -0.0001
250.00 -0.0003
251.00 -0.0003
252.00 -0.0000
253.00 -0.0001
254.00 -0.0000
255.00 -0.0002
256.00 -0.0001
257.00 0.0001
258.00 0.0001
259.00 -0.0000
260.00 -0.0001
261.00 -0.0001
262.00 -0.0001
263.00 -0.0000
264.00 0.0002
265.00 -0.0001
266.00 -0.0002
267.00 -0.0001
268.00 -0.0000
269.00 0.0001
270.00 0.0000
271.00 0.0001
272.00 0.0001
273.00 -0.0001
274.00 0.0002
275.00 0.0000
276.00 0.0000
277.00 0.0001
278.00 0.0002
279.00 0.0000
280.00 -0.0000
281.00 -0.0001
282.00 0.0000
283.00 -0.0004
284.00 -0.0000
285.00 -0.0000
286.00 -0.0001
287.00 -0.0003
288.00 -0.0002
289.00 -0.0003
290.00 -0.0001
291.00 0.0000
292.00 -0.0004
293.00 -0.0003
294.00 -0.0004
295.00 -0.0004
296.00 -0.0004
297.00 -0.0001
298.00 -0.0000
299.00 0.0001
300.00 -0.0000
301.00 -0.0001
302.00 -0.0002
303.00 -0.0002
304.00 -0.0003
305.00 -0.0001
306.00 -0.0000
307.00 0.0000
308.00 -0.0002
309.00 -0.0001
310.00 -0.0000
311.00 0.0002
312.00 -0.0003
313.00 0.0004
314.00 0.0001
315.00 -0.0002
316.00 0.0002
317.00 0.0001
318.00 -0.0001
319.00 -0.0002
320.00 -0.0003
321.00 0.0001
322.00 0.0002
323.00 -0.0004
324.00 0.0001
325.00 -0.0001
326.00 -0.0001
327.00 -0.0004
328.00 -0.0004
329.00 -0.0003
330.00 0.0001
331.00 -0.0002
332.00 -0.0001
333.00 0.0000
334.00 -0.0007
335.00 -0.0005
336.00 -0.0006
337.00 0.0002
338.00 0.0001
339.00 -0.0002
340.00 0.0000
341.00 0.0002
342.00 0.0000
343.00 0.0000
344.00 -0.0002
345.00 -0.0003
346.00 -0.0001
347.00 -0.0003
348.00 0.0000
349.00 0.0000
350.00 0.0001
351.00 0.0001
352.00 -0.0001
353.00 -0.0001
354.00 0.0001
355.00 -0.0003
356.00 0.0000
357.00 -0.0002
358.00 0.0002
359.00 -0.0002
360.00 0.0001
361.00 0.0002
362.00 0.0001
363.00 0.0000
364.00 -0.0001
365.00 -0.0001
366.00 -0.0001
367.00 -0.0004
368.00 -0.0004
369.00 -0.0001
370.00 0.0001
371.00 -0.0002
372.00 -0.0001
373.00 -0.0001
374.00 0.0000
375.00 -0.0001
376.00 -0.0001
377.00 0.0000
378.00 -0.0000
379.00 0.0001
380.00 -0.0001
381.00 0.0001
382.00 0.0001
383.00 0.0000
384.00 -0.0001
385.00 0.0000
386.00 0.0001
387.00 -0.0000
388.00 -0.0001
389.00 -0.0001
390.00 0.0000
391.00 -0.0000
392.00 0.0000
393.00 -0.0000
394.00 -0.0003
395.00 -0.0001
396.00 -0.0000
397.00 0.0000
398.00 0.0001
399.00 0.0000
400.00 0.0001
401.00 0.0001
402.00 -0.0000
403.00 -0.0001
404.00 -0.0001
405.00 -0.0000
406.00 -0.0001
407.00 -0.0001
408.00 -0.0001
409.00 0.0000
410.00 0.0000
411.00 -0.0000
412.00 0.0000
413.00 -0.0001
414.00 0.0000
415.00 -0.0000
416.00 0.0000
417.00 0.0000
418.00 0.0000
419.00 -0.0000
420.00 -0.0001
421.00 0.0000
422.00 -0.0001
423.00 -0.0000
424.00 -0.0000
425.00 -0.0000
426.00 0.0000
427.00 -0.0000
428.00 0.0000
429.00 -0.0000
430.00 0.0000
431.00 0.0000
432.00 0.0000
433.00 0.0000
434.00 -0.0000
435.00 0.0000
436.00 0.0000
437.00 0.0000
438.00 -0.0000
439.00 -0.0000
440.00 -0.0001
441.00 -0.0000
442.00 0.0000
443.00 0.0000
444.00 -0.0000
445.00 0.0000
446.00 0.0000
447.00 0.0000
448.00 0.0000
449.00 -0.0000
450.00 -0.0000
451.00 0.0000
452.00 0.0000
453.00 -0.0000
454.00 -0.0000
455.00 -0.0000
456.00 0.0001
457.00 -0.0000
458.00 -0.0000
459.00 -0.0000
460.00 0.0000
461.00 -0.0000
462.00 -0.0000
463.00 -0.0001
464.00 -0.0000
465.00 -0.0001
466.00 0.0000
467.00 -0.0000
468.00 -0.0000
469.00 0.0000
470.00 0.0000
471.00 0.0000
472.00 -0.0000
473.00 -0.0001
474.00 -0.0000
475.00 0.0000
476.00 0.0000
477.00 -0.0000
478.00 -0.0000
479.00 -0.0000
480.00 -0.0000
481.00 -0.0000
482.00 0.0000
483.00 0.0000
484.00 -0.0000
485.00 -0.0001
486.00 -0.0001
487.00 -0.0001
488.00 -0.0000
489.00 -0.0001
490.00 -0.0001
491.00 -0.0001
492.00 0.0000
493.00 0.0001
494.00 0.0000
495.00 0.0000
496.00 -0.0000
497.00 0.0000
498.00 0.0000
499.00 0.0000
500.00 -0.0001
501.00 -0.0001
502.00 -0.0000
503.00 0.0000
504.00 0.0000
505.00 -0.0000
506.00 -0.0001
507.00 0.0000
508.00 -0.0000
509.00 0.0000
510.00 -0.0000
511.00 -0.0000
512.00 -0.0000
513.00 -0.0000
514.00 0.0000
515.00 -0.0000
516.00 -0.0000
517.00 -0.0000
518.00 -0.0000
519.00 -0.0000
520.00 -0.0000
521.00 0.0000
522.00 0.0000
523.00 0.0000
524.00 -0.0000
525.00 0.0000
526.00 0.0000
527.00 -0.0000
528.00 0.0000
529.00 -0.0000
530.00 -0.0001
531.00 -0.0000
532.00 0.0000
533.00 0.0000
534.00 -0.0000
535.00 0.0000
536.00 0.0000
537.00 -0.0000
538.00 -0.0001
539.00 0.0000
540.00 0.0000
541.00 0.0000
542.00 0.0000
543.00 0.0000
544.00 0.0000
545.00 -0.0000
546.00 0.0000
547.00 0.0000
548.00 0.0000
549.00 0.0000
550.00 -0.0000
551.00 -0.0001
552.00 0.0000
553.00 0.0000
554.00 0.0000
555.00 0.0000
556.00 0.0000
557.00 0.0000
558.00 0.0000
559.00 -0.0000
560.00 0.0000
561.00 0.0000
562.00 0.0000
563.00 0.0000
564.00 -0.0000
565.00 0.0000
566.00 0.0000
567.00 0.0000
568.00 0.0000
569.00 0.0000
570.00 0.0000
571.00 -0.0000
572.00 -0.0000
573.00 0.0000
574.00 -0.0000
575.00 -0.0000
576.00 0.0000
577.00 -0.0000
578.00 0.0000
579.00 0.0000
580.00 0.0000
581.00 0.0000
582.00 0.0000
583.00 0.0000
584.00 -0.0000
585.00 -0.0000
586.00 0.0000
587.00 0.0000
588.00 0.0000
589.00 0.0000
590.00 0.0000
591.00 -0.0000
592.00 -0.0001
593.00 0.0000
594.00 0.0000
595.00 -0.0000
596.00 -0.0000
597.00 0.0000
598.00 0.0000
599.00 0.0000
600.00 0.0000
601.00 0.0001
602.00 0.0000
603.00 -0.0000
604.00 -0.0000
605.00 0.0000
606.00 -0.0000
607.00 0.0000
608.00 -0.0000
609.00 0.0000
610.00 -0.0000
611.00 0.0000
612.00 0.0000
613.00 0.0000
614.00 0.0001
615.00 0.0000
616.00 0.0000
617.00 0.0000
618.00 0.0000
619.00 0.0001
620.00 -0.0000
621.00 0.0000
622.00 0.0000
623.00 0.0001
624.00 0.0000
625.00 0.0000
626.00 -0.0001
627.00 0.0000
628.00 0.0000
629.00 -0.0000
630.00 -0.0000
631.00 -0.0000
632.00 0.0000
633.00 -0.0000
634.00 -0.0000
635.00 -0.0001
636.00 0.0000
637.00 0.0000
638.00 0.0000
639.00 0.0000
640.00 0.0000
641.00 0.0001
642.00 0.0000
643.00 0.0000
644.00 0.0000
645.00 0.0000
646.00 0.0000
647.00 0.0000
648.00 0.0000
649.00 0.0000
650.00 0.0000
651.00 -0.0000
652.00 -0.0000
653.00 0.0000
654.00 0.0000
655.00 0.0000
656.00 0.0000
657.00 0.0000
658.00 0.0000
659.00 0.0000
660.00 -0.0000
661.00 0.0000
662.00 0.0000
663.00 0.0000
664.00 0.0000
665.00 0.0001
666.00 0.0000
667.00 -0.0000
668.00 0.0000
669.00 0.0000
670.00 -0.0000
671.00 -0.0000
672.00 -0.0000
673.00 0.0000
674.00 0.0000
675.00 0.0000
676.00 0.0000
677.00 0.0001
678.00 0.0001
679.00 0.0001
680.00 0.0000
681.00 0.0000
682.00 0.0001
683.00 0.0000
684.00 0.0000
685.00 0.0000
686.00 0.0000
687.00 -0.0000
688.00 -0.0001
689.00 -0.0000
690.00 0.0000
691.00 0.0001
692.00 0.0000
693.00 0.0000
694.00 0.0001
695.00 0.0001
696.00 -0.0000
697.00 -0.0001
698.00 -0.0001
699.00 -0.0000
700.00 0.0000
701.00 0.0000
702.00 0.0000
703.00 0.0000
704.00 0.0000
705.00 -0.0001
706.00 -0.0000
707.00 -0.0000
708.00 0.0000
709.00 -0.0000
710.00 -0.0000
711.00 0.0000
712.00 -0.0001
713.00 0.0000
714.00 0.0000
715.00 0.0000
716.00 0.0000
717.00 0.0001
718.00 0.0000
719.00 -0.0000
720.00 0.0000
721.00 0.0000
722.00 -0.0000
723.00 0.0000
724.00 0.0000
725.00 0.0000
726.00 0.0000
727.00 0.0000
728.00 -0.0000
729.00 -0.0001
730.00 0.0000
731.00 0.0000
732.00 0.0000
733.00 -0.0000
734.00 0.0000
735.00 0.0001
736.00 0.0001
737.00 0.0001
738.00 0.0000
739.00 -0.0000
740.00 0.0000
741.00 0.0000
742.00 0.0000
743.00 -0.0000
744.00 -0.0001
745.00 -0.0001
746.00 -0.0000
747.00 0.0000
748.00 0.0001
749.00 -0.0000
750.00 0.0000
751.00 0.0000
752.00 0.0000
753.00 0.0000
754.00 -0.0000
755.00 -0.0000
756.00 0.0000
757.00 -0.0000
758.00 -0.0000
759.00 0.0000
760.00 0.0000
761.00 0.0000
762.00 -0.0001
763.00 -0.0001
764.00 0.0000
765.00 0.0000
766.00 0.0000
767.00 -0.0000
768.00 -0.0001
769.00 -0.0000
770.00 0.0000
771.00 -0.0000
772.00 0.0000
773.00 0.0000
774.00 -0.0001
775.00 0.0000
776.00 0.0000
777.00 -0.0001
778.00 -0.0001
779.00 -0.0000
780.00 -0.0000
781.00 -0.0000
782.00 -0.0000
783.00 0.0000
784.00 -0.0000
785.00 -0.0000
786.00 -0.0001
787.00 -0.0000
788.00 -0.0001
789.00 -0.0001
790.00 -0.0001
791.00 -0.0001
792.00 -0.0001
793.00 -0.0000
794.00 0.0000
795.00 0.0000
796.00 -0.0000
797.00 -0.0001
798.00 -0.0001
799.00 0.0000
800.00 -0.0000
801.00 0.0000
802.00 0.0000
803.00 0.0001
804.00 0.0000
805.00 -0.0000
806.00 -0.0000
807.00 -0.0000
808.00 0.0000
809.00 0.0001
810.00 0.0000
811.00 -0.0000
812.00 -0.0001
813.00 -0.0001
814.00 0.0000
815.00 0.0000
816.00 -0.0000
817.00 0.0000
818.00 0.0000
819.00 0.0000
820.00 0.0000
821.00 -0.0000
822.00 0.0000
823.00 -0.0000
824.00 0.0000
825.00 0.0000
826.00 0.0000
827.00 0.0000
828.00 0.0000
829.00 0.0000
830.00 0.0000
831.00 0.0000
832.00 0.0000
833.00 -0.0000
834.00 0.0000
835.00 0.0000
836.00 -0.0000
837.00 -0.0000
838.00 -0.0000
839.00 -0.0001
840.00 -0.0000
841.00 -0.0000
842.00 -0.0000
843.00 0.0000
844.00 0.0000
845.00 0.0000
846.00 -0.0000
847.00 -0.0000
848.00 0.0000
849.00 0.0002
850.00 -0.0001
851.00 0.0000
852.00 -0.0000
853.00 -0.0001
854.00 0.0000
855.00 0.0000
856.00 0.0000
857.00 0.0000
858.00 -0.0000
859.00 -0.0000
860.00 0.0000
861.00 0.0001
862.00 0.0000
863.00 0.0000
864.00 0.0001
865.00 0.0000
866.00 0.0000
867.00 0.0000
868.00 -0.0000
869.00 0.0000
870.00 -0.0000
871.00 -0.0000
872.00 0.0000
873.00 0.0000
874.00 0.0001
875.00 0.0000
876.00 -0.0000
877.00 0.0000
878.00 0.0001
879.00 0.0000
880.00 0.0000
881.00 0.0000
882.00 -0.0000
883.00 0.0000
884.00 0.0000
885.00 0.0000
886.00 0.0000
887.00 0.0000
888.00 -0.0000
889.00 -0.0000
890.00 0.0000
891.00 0.0000
892.00 0.0000
893.00 -0.0000
894.00 -0.0000
895.00 0.0000
896.00 0.0000
897.00 0.0000
898.00 0.0000
899.00 0.0000
900.00 -0.0000
901.00 -0.0000
902.00 0.0000
903.00 -0.0000
904.00 0.0000
905.00 0.0000
906.00 0.0000
907.00 0.0000
908.00 0.0000
909.00 0.0001
910.00 0.0001
911.00 0.0000
912.00 0.0000
913.00 0.0000
914.00 0.0000
915.00 -0.0000
916.00 0.0000
917.00 0.0000
918.00 0.0000
919.00 -0.0000
920.00 0.0000
921.00 -0.0000
922.00 -0.0000
923.00 0.0000
924.00 -0.0000
925.00 0.0000
926.00 -0.0000
927.00 0.0000
928.00 0.0000
929.00 0.0000
930.00 0.0000
931.00 0.0000
932.00 0.0000
933.00 -0.0000
934.00 -0.0000
935.00 0.0000
936.00 0.0000
937.00 0.0001
938.00 0.0000
939.00 0.0001
940.00 0.0001
941.00 0.0001
942.00 0.0001
943.00 -0.0000
944.00 -0.0001
945.00 0.0000
946.00 0.0001
947.00 0.0000
948.00 -0.0001
949.00 0.0000
950.00 0.0001
951.00 0.0000
952.00 -0.0001
953.00 0.0001
954.00 -0.0000
955.00 -0.0001
956.00 0.0000
957.00 0.0000
958.00 -0.0000
959.00 0.0000
960.00 -0.0000
961.00 0.0001
962.00 0.0000
963.00 -0.0001
964.00 0.0000
965.00 0.0000
966.00 0.0001
967.00 0.0000
968.00 -0.0000
969.00 0.0000
970.00 -0.0000
971.00 0.0000
972.00 0.0001
973.00 0.0000
974.00 0.0000
975.00 -0.0000
976.00 0.0000
977.00 0.0000
978.00 0.0000
979.00 -0.0001
980.00 -0.0001
981.00 -0.0000
982.00 0.0000
983.00 0.0000
984.00 0.0000
985.00 -0.0000
986.00 0.0001
987.00 0.0000
988.00 -0.0000
989.00 -0.0000
990.00 0.0000
991.00 -0.0001
992.00 0.0000
993.00 -0.0000
994.00 0.0000
995.00 0.0000
996.00 -0.0000
997.00 0.0000
998.00 0.0000
999.00 0.0000
1000.00 0.0000
1001.00 -0.0000
1002.00 -0.0001
1003.00 0.0000
1004.00 0.0001
1005.00 0.0000
1006.00 -0.0000
1007.00 -0.0000
1008.00 0.0000
1009.00 0.0000
1010.00 0.0001
1011.00 0.0001
1012.00 0.0000
1013.00 0.0000
1014.00 0.0000
1015.00 0.0000
1016.00 -0.0001
1017.00 0.0000
1018.00 -0.0000
1019.00 0.0000
1020.00 0.0000
1021.00 0.0000
1022.00 -0.0001
1023.00 -0.0000
1024.00 0.0001
1025.00 -0.0000
1026.00 -0.0000
1027.00 -0.0001
1028.00 0.0000
1029.00 0.0001
1030.00 0.0000
1031.00 -0.0000
1032.00 -0.0000
1033.00 0.0000
1034.00 0.0001
1035.00 0.0000
1036.00 0.0000
1037.00 0.0000
1038.00 -0.0000
1039.00 -0.0000
1040.00 -0.0001
1041.00 -0.0001
1042.00 -0.0000
1043.00 0.0000
1044.00 0.0001
1045.00 0.0001
1046.00 0.0001
1047.00 0.0001
1048.00 0.0001
1049.00 0.0001
1050.00 0.0000
1051.00 -0.0000
1052.00 -0.0000
1053.00 -0.0000
1054.00 0.0001
1055.00 0.0000
1056.00 0.0000
1057.00 0.0001
1058.00 -0.0000
1059.00 -0.0000
1060.00 0.0001
1061.00 0.0000
1062.00 -0.0001
1063.00 -0.0001
1064.00 -0.0001
1065.00 -0.0001
1066.00 -0.0000
1067.00 -0.0000
1068.00 -0.0000
1069.00 0.0001
1070.00 0.0001
1071.00 0.0000
1072.00 -0.0000
1073.00 -0.0000
1074.00 0.0001
1075.00 0.0001
1076.00 0.0001
1077.00 0.0001
1078.00 0.0001
1079.00 0.0000
1080.00 -0.0000
1081.00 0.0000
1082.00 -0.0000
1083.00 0.0001
1084.00 0.0000
1085.00 0.0000
1086.00 0.0000
1087.00 0.0000
1088.00 0.0000
1089.00 0.0001
1090.00 0.0001
1091.00 0.0001
1092.00 0.0000
1093.00 0.0000
1094.00 -0.0000
1095.00 0.0000
1096.00 0.0001
1097.00 0.0000
1098.00 -0.0001
1099.00 0.0002
1100.00 0.0000
